"size","frequency"
-1.54133198893826,0.0107395827651433
-1.40512014194658,0.0117518304027317
-1.2689082949549,0.012747387857357
-1.13269644796322,0.0137089494664784
-0.996484600971539,0.0146197447234199
-0.860272753979859,0.0154643017406985
-0.724060906988178,0.0162291737925658
-0.587849059996498,0.0169035791360952
-0.451637213004818,0.0174799086865729
-0.315425366013138,0.0179540646033222
-0.179213519021457,0.018325604765051
-0.0430016720297769,0.0185976824314895
0.0932101749619034,0.0187767857761602
0.229422021953584,0.0188722969798477
0.365633868945264,0.0188959037774359
0.501845715936944,0.018860906530284
0.638057562928624,0.0187814701620898
0.774269409920305,0.0186718721828882
0.910481256911985,0.018545795535759
1.04669310390367,0.018415708552415
1.18290495089535,0.01829236475548
1.31911679788703,0.0181844436645248
1.45532864487871,0.0180983413278448
1.59154049187039,0.0180381072584342
1.72775233886207,0.0180055138451155
1.86396418585375,0.0180002359518524
2.00017603284543,0.0180201128944756
2.13638787983711,0.0180614626967918
2.27259972682879,0.0181194184828408
2.40881157382047,0.0181882600648002
2.54502342081215,0.0182617189037782
2.68123526780383,0.0183332412953723
2.81744711479551,0.0183962006831328
2.95365896178719,0.0184440580159684
3.08987080877887,0.0184704767663134
3.22608265577055,0.018469402912648
3.36229450276223,0.0184351201466534
3.49850634975391,0.01836230288781
3.63471819674559,0.0182460791618697
3.77093004373727,0.0180821084612907
3.90714189072895,0.0178666965107871
4.04335373772063,0.0175969250805261
4.17956558471231,0.0172708098314108
4.31577743170399,0.0168874518491201
4.45198927869567,0.016447180901305
4.58820112568735,0.0159516513955372
4.72441297267903,0.0154038865426469
4.86062481967071,0.0148082466436826
4.99683666666239,0.0141703178282744
5.13304851365407,0.013496724089993
5.26926036064575,0.0127948711926545
5.40547220763743,0.0120726394665856
5.54168405462911,0.0113380483519602
5.6778959016208,0.0105989237196232
5.81410774861248,0.00986261187298341
5.95031959560415,0.00913580723498155
6.08653144259583,0.00842458104269859
6.22274328958752,0.00773463566825458
6.3589551365792,0.00707152894741501
6.49516698357088,0.00644045021037907
6.63137883056256,0.00584561589245566
6.76759067755424,0.00528981510381517
6.90380252454592,0.00477434076603741
7.0400143715376,0.00429915426997033
7.17622621852928,0.0038631127800058
7.31243806552096,0.00346422344070387
7.44864991251264,0.00309995941950689
7.58486175950432,0.00276764884016482
7.721073606496,0.00246487792789636
7.85728545348768,0.002189789578766
7.99349730047936,0.00194115195000095
8.12970914747104,0.00171814026633964
8.26592099446272,0.00151990166562662
8.4021328414544,0.00134509756823788
8.53834468844608,0.00119166210485182
