"size","frequency"
-1.54133198893826,0.0103898648113104
-1.40512014194658,0.0113514783497514
-1.2689082949549,0.0122959707804662
-1.13269644796322,0.0132068862418172
-0.996484600971539,0.0140683322221004
-0.860272753979859,0.0148657170764532
-0.724060906988178,0.0155864522016009
-0.587849059996498,0.0162205708573267
-0.451637213004818,0.0167612196737271
-0.315425366013138,0.0172049868579108
-0.179213519021457,0.0175520423976247
-0.0430016720297769,0.0178060791703129
0.0932101749619034,0.0179740585584015
0.229422021953584,0.0180657785730752
0.365633868945264,0.0180932952560649
0.501845715936944,0.0180702380987889
0.638057562928624,0.0180110665359026
0.774269409920305,0.0179303167785002
0.910481256911985,0.0178418863314179
1.04669310390367,0.0177583978708096
1.18290495089535,0.0176906755209319
1.31911679788703,0.017647355951744
1.45532864487871,0.0176346452213437
1.59154049187039,0.0176562210452823
1.72775233886207,0.0177132701487094
1.86396418585375,0.0178046422977558
2.00017603284543,0.0179270970392858
2.13638787983711,0.0180756161812402
2.27259972682879,0.0182437544153801
2.40881157382047,0.0184240023883255
2.54502342081215,0.0186081401948297
2.68123526780383,0.0187875644265174
2.81744711479551,0.0189535761858158
2.95365896178719,0.0190976245529981
3.08987080877887,0.0192115065869131
3.22608265577055,0.0192875278647342
3.36229450276223,0.0193186272142062
3.49850634975391,0.019298482730661
3.63471819674559,0.0192216061042553
3.77093004373727,0.0190834269039167
3.90714189072895,0.0188803881299951
4.04335373772063,0.0186100325000013
4.17956558471231,0.018271097729701
4.31577743170399,0.0178635937224089
4.45198927869567,0.0173888707634149
4.58820112568735,0.016849649911597
4.72441297267903,0.0162500208692678
4.86062481967071,0.0155953878243898
4.99683666666239,0.0148923603804979
5.13304851365407,0.0141485873357079
5.26926036064575,0.013372534483496
5.40547220763743,0.0125732168379586
5.54168405462911,0.0117599026905247
5.6778959016208,0.0109418135645751
5.81410774861248,0.0101278463500045
5.95031959560415,0.00932633957828827
6.08653144259583,0.00854489694305242
6.22274328958752,0.00779026847065262
6.3589551365792,0.00706827453364884
6.49516698357088,0.00638374923272973
6.63137883056256,0.00574048133229275
6.76759067755424,0.00514116275076433
6.90380252454592,0.00458738904113386
7.0400143715376,0.00407974347432654
7.17622621852928,0.00361793761319155
7.31243806552096,0.00320095125709963
7.44864991251264,0.00282713988281973
7.58486175950432,0.00249431082939389
7.721073606496,0.00219978220498981
7.85728545348768,0.00194044079559307
7.99349730047936,0.00171281733727763
8.12970914747104,0.00151319786377902
8.26592099446272,0.00133778228270332
8.4021328414544,0.00118288409017263
8.53834468844608,0.00104514577434105
